f[Hz] 	 GabsStart 	 GphiStart 	 GabsFit 	 GphiFit
800.0 	 0.002242888035338016 	 82.26605440687763 	 0.0028865142003488835 	 85.05907020994312
801.0 	 0.002252564796066817 	 82.23248143665012 	 0.0029020184030384717 	 85.03246470053382
802.0 	 0.0022623089276021372 	 82.1986720154922 	 0.0029176652279680154 	 85.00561335988488
803.0 	 0.0022721211467258496 	 82.16462358706316 	 0.0029334566767771197 	 84.97851271676986
804.0 	 0.002282002180234639 	 82.13033355852492 	 0.0029493947884660495 	 84.95115923465428
805.0 	 0.0022919527651129035 	 82.09579929989405 	 0.0029654816402670103 	 84.92354931015737
806.0 	 0.0023019736487091785 	 82.06101814338005 	 0.002981719348539761 	 84.89567927147029
807.0 	 0.002312065588916175 	 82.0259873827097 	 0.0029981100696923994 	 84.86754537672951
808.0 	 0.002322229354354509 	 81.99070427243677 	 0.0030146560011280947 	 84.83914381234356
809.0 	 0.0023324657245602375 	 81.95516602723731 	 0.0030313593822186846 	 84.810470691272
810.0 	 0.0023427754901762473 	 81.91936982118958 	 0.00304822249530595 	 84.78152205125451
811.0 	 0.0023531594531476267 	 81.88331278703842 	 0.0030652476667315455 	 84.75229385298891
812.0 	 0.002363618426921082 	 81.84699201544414 	 0.003082437267896496 	 84.72278197825607
813.0 	 0.0023741532366485327 	 81.81040455421466 	 0.0030997937163512934 	 84.69298222798996
814.0 	 0.0023847647193949487 	 81.77354740752116 	 0.0031173194769175748 	 84.6628903202911
815.0 	 0.0023954537243505466 	 81.73641753509683 	 0.0031350170628424777 	 84.63250188838133
816.0 	 0.002406221113047461 	 81.69901185141771 	 0.0031528890369867846 	 84.6018124784979
817.0 	 0.0024170677595809764 	 81.66132722486579 	 0.0031709380130479827 	 84.57081754772483
818.0 	 0.0024279945508354447 	 81.62336047687363 	 0.0031891666568194597 	 84.53951246175927
819.0 	 0.0024390023867149934 	 81.58510838105006 	 0.0032075776874870504 	 84.50789249261078
820.0 	 0.002450092180379157 	 81.54656766228646 	 0.003226173878964276 	 84.47595281623084
821.0 	 0.0024612648584835246 	 81.50773499584324 	 0.0032449580612675527 	 84.44368851007053
822.0 	 0.00247252136142555 	 81.46860700641575 	 0.0032639331219328103 	 84.41109455056342
823.0 	 0.0024838626435956333 	 81.42918026717952 	 0.0032831020074749516 	 84.3781658105314
824.0 	 0.0024952896736336245 	 81.38945129881377 	 0.00330246772489168 	 84.3448970565104
825.0 	 0.0025068034346908603 	 81.34941656850305 	 0.003322033343213248 	 84.31128294599311
826.0 	 0.002518404924697873 	 81.30907248891627 	 0.0033418019950997393 	 84.27731802458611
827.0 	 0.0025300951566379387 	 81.26841541716247 	 0.0033617768784876476 	 84.24299672307758
828.0 	 0.0025418751588265685 	 81.22744165372285 	 0.0033819612582874485 	 84.20831335441308
829.0 	 0.002553745975197127 	 81.18614744135823 	 0.003402358468134043 	 84.17326211057538
830.0 	 0.002565708665592697 	 81.14452896399176 	 0.003422971912191969 	 84.13783705936545
831.0 	 0.0025777643060643915 	 81.10258234556551 	 0.003443805067017415 	 84.1020321410801
832.0 	 0.002589913989176222 	 81.06030364887086 	 0.003464861483479055 	 84.06584116508331
833.0 	 0.002602158824316722 	 81.01768887435172 	 0.0034861447887398946 	 84.0292578062667
834.0 	 0.0026144999380174993 	 80.97473395887988 	 0.003507658688302412 	 83.99227560139495
835.0 	 0.002626938474278863 	 80.93143477450165 	 0.003529406968119292 	 83.95488794533229
836.0 	 0.0026394755949027313 	 80.8877871271554 	 0.003551393496772235 	 83.91708808714492
837.0 	 0.00265211247983299 	 80.84378675535861 	 0.00357362222772137 	 83.87886912607509
838.0 	 0.0026648503275035046 	 80.79942932886414 	 0.0035960972016279708 	 83.8402240073816
839.0 	 0.0026776903551939684 	 80.7547104472845 	 0.003618822548753209 	 83.80114551804166
840.0 	 0.0026906337993937886 	 80.70962563868363 	 0.0036418024914358473 	 83.76162628230892
841.0 	 0.002703681916174223 	 80.66417035813487 	 0.0036650413466519202 	 83.72165875712156
842.0 	 0.002716835981568984 	 80.61833998624445 	 0.0036885435286595305 	 83.68123522735496
843.0 	 0.0027300972919635123 	 80.57212982763961 	 0.0037123135517320585 	 83.64034780091279
844.0 	 0.0027434671644931464 	 80.52553510942009 	 0.0037363560329831875 	 83.59898840364986
845.0 	 0.002756946937450448 	 80.47855097957223 	 0.0037606756952874155 	 83.55714877412008
846.0 	 0.0027705379707018748 	 80.43117250534459 	 0.003785277370299694 	 83.51482045814274
847.0 	 0.0027842416461140774 	 80.38339467158374 	 0.0038101660015781727 	 83.47199480317951
848.0 	 0.0027980593679900593 	 80.33521237902967 	 0.0038353466478141126 	 83.42866295251443
849.0 	 0.00281199256351547 	 80.28662044256899 	 0.0038608244861732715 	 83.38481583922922
850.0 	 0.0028260426832152703 	 80.23761358944536 	 0.0038866048157531648 	 83.34044417996505
851.0 	 0.0028402112014210756 	 80.1881864574254 	 0.003912693061160934 	 83.29553846846218
852.0 	 0.0028544996167494253 	 80.13833359291925 	 0.003939094776216661 	 83.25008896886834
853.0 	 0.00286890945259131 	 80.0880494490542 	 0.003965815647787272 	 83.20408570880585
854.0 	 0.0028834422576132085 	 80.03732838370009 	 0.003992861499756341 	 83.15751847218779
855.0 	 0.002898099606269957 	 79.98616465744529 	 0.004020238297135376 	 83.11037679177225
856.0 	 0.002912883099329796 	 79.93455243152147 	 0.004047952150322516 	 83.06264994144371
857.0 	 0.002927794364411865 	 79.88248576567611 	 0.004076009319514648 	 83.01432692820975
858.0 	 0.0029428350565365202 	 79.82995861599078 	 0.004104416219279461 	 82.9653964839011
859.0 	 0.002958006858688793 	 79.77696483264397 	 0.004133179423294087 	 82.91584705656204
860.0 	 0.002973311482395369 	 79.72349815761667 	 0.0041623056692574305 	 82.8656668015175
861.0 	 0.002988750668315426 	 79.66955222233904 	 0.004191801863983507 	 82.81484357210317
862.0 	 0.003004326186845708 	 79.61512054527638 	 0.004221675088683556 	 82.76336491004335
863.0 	 0.0030200398387402318 	 79.5601965294528 	 0.004251932604445013 	 82.71121803546123
864.0 	 0.0030358934557450246 	 79.5047734599105 	 0.004282581857915887 	 82.65838983650502
865.0 	 0.0030518889012482783 	 79.4488445011028 	 0.0043136304872034015 	 82.60486685857298
866.0 	 0.0030680280709463547 	 79.39240269421914 	 0.004345086327996272 	 82.55063529311897
867.0 	 0.0030843128935260857 	 79.33544095443968 	 0.004376957419920497 	 82.49568096601979
868.0 	 0.003100745331363784 	 79.27795206811756 	 0.004409252013138863 	 82.439989325484
869.0 	 0.0031173273812414434 	 79.21992868988673 	 0.004441978575205081 	 82.38354542948154
870.0 	 0.003134061075080585 	 79.16136333969291 	 0.004475145798183836 	 82.3263339326717
871.0 	 0.0031509484806942598 	 79.10224839974528 	 0.004508762606048786 	 82.26833907280626
872.0 	 0.003167991702557666 	 79.04257611138686 	 0.004542838162370951 	 82.20954465658333
873.0 	 0.0031851928825979274 	 78.98233857188052 	 0.004577381878310734 	 82.14993404492589
874.0 	 0.003202554201003541 	 78.9215277311086 	 0.004612403420927403 	 82.08949013765792
875.0 	 0.00322007787705406 	 78.86013538818301 	 0.004647912721820677 	 82.02819535754928
876.0 	 0.0032377661699705415 	 78.7981531879633 	 0.004683919986119627 	 81.9660316336992
877.0 	 0.00325562137978735 	 78.73557261747976 	 0.004720435701835111 	 81.9029803842265
878.0 	 0.0032736458482459266 	 78.67238500225854 	 0.004757470649592705 	 81.83902249823252
879.0 	 0.0032918419597110934 	 78.60858150254582 	 0.00479503591276395 	 81.77413831700183
880.0 	 0.003310212142110556 	 78.54415310942768 	 0.004833142888014758 	 81.70830761440244
881.0 	 0.0033287588678982266 	 78.47909064084277 	 0.004871803296290781 	 81.64150957644674
882.0 	 0.00334748465504205 	 78.4133847374837 	 0.004911029194260624 	 81.57372277997047
883.0 	 0.0033663920680370094 	 78.34702585858439 	 0.004950832986238883 	 81.50492517038612
884.0 	 0.003385483718943999 	 78.28000427758916 	 0.004991227436612169 	 81.43509403846373
885.0 	 0.0034047622684552996 	 78.21231007770012 	 0.0050322256827925755 	 81.36420599608971
886.0 	 0.0034242304269874306 	 78.1439331472988 	 0.005073841248724406 	 81.29223695095126
887.0 	 0.003443890955802078 	 78.07486317523784 	 0.005116088058971248 	 81.21916208009112
888.0 	 0.0034637466681559366 	 78.00508964599898 	 0.005158980453412146 	 81.14495580227444
889.0 	 0.0034838004304802743 	 77.93460183471238 	 0.005202533202577181 	 81.06959174910469
890.0 	 0.003504055163591013 	 77.86338880203344 	 0.005246761523654309 	 80.99304273482407
891.0 	 0.0035245138439302316 	 77.79143938887186 	 0.005291681097201339 	 80.91528072472804
892.0 	 0.003545179504839913 	 77.71874221096849 	 0.005337308084598554 	 80.8362768021202
893.0 	 0.0035660552378689145 	 77.64528565331472 	 0.005383659146279828 	 80.75600113372937
894.0 	 0.0035871441941140144 	 77.57105786440948 	 0.005430751460781845 	 80.67442293350564
895.0 	 0.0036084495855960397 	 77.49604675034811 	 0.00547860274465364 	 80.59151042470707
896.0 	 0.003629974686672021 	 77.42023996873795 	 0.005527231273270853 	 80.5072308001838
897.0 	 0.003651722835484439 	 77.34362492243432 	 0.005576655902601863 	 80.42155018075948
898.0 	 0.0036736974354485237 	 77.26618875309151 	 0.005626896091975461 	 80.33443357160475
899.0 	 0.0036959019567787093 	 77.1879183345221 	 0.005677971927902765 	 80.2458448164903
900.0 	 0.003718339938055359 	 77.10880026585819 	 0.005729904149009207 	 80.15574654979979
901.0 	 0.003741014987832821 	 77.02882086450822 	 0.005782714172135478 	 80.06410014617563
902.0 	 0.0037639307862900114 	 76.94796615890196 	 0.00583642411967003 	 79.9708656676625
903.0 	 0.003787091086924665 	 76.86622188101688 	 0.005891056848179202 	 79.87600180820392
904.0 	 0.0038104997182925216 	 76.78357345867799 	 0.005946635978405294 	 79.77946583533894
905.0 	 0.0038341605857926 	 76.70000600762394 	 0.006003185926706614 	 79.68121352893498
906.0 	 0.0038580776734999126 	 76.61550432333088 	 0.006060731938018485 	 79.58119911678261
907.0 	 0.003882255046046842 	 76.530052872586 	 0.00611930012041848 	 79.47937520686622
908.0 	 0.003906696850554593 	 76.44363578480193 	 0.006178917481384587 	 79.37569271611196
909.0 	 0.0039314073186160065 	 76.35623684306316 	 0.006239611965839935 	 79.27010079540112
910.0 	 0.003956390768331151 	 76.2678394748951 	 0.006301412496083746 	 79.16254675062277
911.0 	 0.003981651606397154 	 76.17842674274614 	 0.006364349013714083 	 79.05297595952372
912.0 	 0.004007194330253663 	 76.08798133417237 	 0.006428452523654321 	 78.94133178409734
913.0 	 0.004033023530285461 	 75.99648555171524 	 0.006493755140402267 	 78.82755547823507
914.0 	 0.00405914389208372 	 75.90392130246046 	 0.006560290136627961 	 78.71158609034465
915.0 	 0.00408556019876751 	 75.81027008726751 	 0.006628091994254118 	 78.59336036061887
916.0 	 0.004112277333367003 	 75.71551298965798 	 0.006697196458161056 	 78.47281261261573
917.0 	 0.00413930028127012 	 75.61963066435034 	 0.006767640592667039 	 78.34987463878707
918.0 	 0.004166634132734119 	 75.52260332542912 	 0.006839462840943877 	 78.2244755795667
919.0 	 0.004194284085463886 	 75.42441073413458 	 0.00691270308753775 	 78.09654179560036
920.0 	 0.004222255447258529 	 75.32503218626047 	 0.006987402724175288 	 77.96599673267059
921.0 	 0.004250553638727985 	 75.22444649914456 	 0.0070636047190462195 	 77.8327607788356
922.0 	 0.004279184196081426 	 75.12263199823833 	 0.007141353689765554 	 77.69675111326669
923.0 	 0.004308152773989096 	 75.0195665032399 	 0.007220695980230359 	 77.55788154623013
924.0 	 0.004337465148519426 	 74.91522731377499 	 0.007301679741599582 	 77.41606234961822
925.0 	 0.004367127220153126 	 74.80959119460918 	 0.007384355017638724 	 77.27120007738937
926.0 	 0.0043971450168760785 	 74.70263436037442 	 0.0074687738346861775 	 77.12319737522846
927.0 	 0.004427524697352796 	 74.59433245979251 	 0.007554990296512671 	 76.97195277868703
928.0 	 0.004458272554182176 	 74.48466055937675 	 0.007643060684361676 	 76.81736049900546
929.0 	 0.004489395017237403 	 74.37359312659311 	 0.0077330435624752645 	 76.65931019575805
930.0 	 0.004520898657091742 	 74.26110401246068 	 0.007824999889427413 	 76.49768673539549
931.0 	 0.004552790188531923 	 74.14716643357137 	 0.0079189931356047 	 76.3323699346872
932.0 	 0.0045850764741608785 	 74.03175295350724 	 0.008015089407193518 	 76.16323428798779
933.0 	 0.0046177645280915626 	 73.91483546363324 	 0.008113357577052276 	 75.99014867716676
934.0 	 0.00465086151973343 	 73.79638516324253 	 0.008213869422866863 	 75.81297606294979
935.0 	 0.00468437477767323 	 73.67637253903062 	 0.008316699773008179 	 75.63157315631926
936.0 	 0.0047183117936516255 	 73.55476734387331 	 0.008421926660531017 	 75.44579006851447
937.0 	 0.004752680226637152 	 73.43153857488277 	 0.008529631485774299 	 75.25546993805439
938.0 	 0.004787487906998857 	 73.30665445071526 	 0.008639899188042739 	 75.06044853307918
939.0 	 0.00482274284077889 	 73.18008238810265 	 0.008752818426869905 	 74.86055382716908
940.0 	 0.004858453214066266 	 73.05178897757914 	 0.008868481773381391 	 74.65560554664951
941.0 	 0.0048946273974727885 	 72.92173995837311 	 0.008986985912293834 	 74.44541468722966
942.0 	 0.004931273950712024 	 72.78990019243368 	 0.009108431855100475 	 74.22978299764736
943.0 	 0.004968401627281965 	 72.6562336375597 	 0.009232925165005658 	 74.00850242780173
944.0 	 0.005006019379252025 	 72.52070331959776 	 0.009360576194179189 	 73.78135453865053
945.0 	 0.005044136362154454 	 72.38327130367539 	 0.009491500333903028 	 73.5481098709273
946.0 	 0.0050827619399803165 	 72.24389866443319 	 0.009625818278179684 	 73.30852726949223
947.0 	 0.005121905690279673 	 72.10254545521977 	 0.0097636563013583 	 73.06235315987254
948.0 	 0.005161577409365458 	 71.95917067621023 	 0.00990514655031163 	 72.80932077326776
949.0 	 0.005201787117619964 	 71.8137322414099 	 0.010050427351659523 	 72.54914931599622
950.0 	 0.005242545064902665 	 71.66618694450149 	 0.010199643534481832 	 72.28154307903463
951.0 	 0.005283861736057478 	 71.51649042349406 	 0.010352946768889072 	 72.00619048295802
952.0 	 0.0053257478565172395 	 71.36459712412956 	 0.01051049592072044 	 71.7227630532163
953.0 	 0.005368214398002337 	 71.2104602620025 	 0.010672457422507747 	 71.43091432029256
954.0 	 0.005411272584310156 	 71.05403178334572 	 0.010839005660676745 	 71.13027863886772
955.0 	 0.005454933897191035 	 70.89526232443451 	 0.011010323378742533 	 70.82046991967901
956.0 	 0.005499210082305802 	 70.73410116955955 	 0.01118660209598586 	 70.50108026729583
957.0 	 0.005544113155259019 	 70.570496207518 	 0.011368042540758964 	 70.17167851655805
958.0 	 0.005589655407701273 	 70.40439388656998 	 0.01155485509714956 	 69.83180865992485
959.0 	 0.00563584941349267 	 70.23573916780688 	 0.011747260263211424 	 69.480988157481
960.0 	 0.005682708034918593 	 70.06447547687635 	 0.011945489118330039 	 69.11870612084098
961.0 	 0.005730244428947613 	 69.89054465400692 	 0.01214978379650748 	 68.74442136169976
962.0 	 0.005778472053519861 	 69.7138869022749 	 0.012360397961390691 	 68.3575602953102
963.0 	 0.005827404673852968 	 69.5344407340535 	 0.012577597277699859 	 67.95751468874403
964.0 	 0.005877056368750589 	 69.35214291558438 	 0.012801659872291525 	 67.54363924344402
965.0 	 0.005927441536897025 	 69.16692840960958 	 0.01303287677637006 	 67.11524900132574
966.0 	 0.005978574903119336 	 68.97873031600116 	 0.013271552338277566 	 66.67161656358827
967.0 	 0.006030471524595952 	 68.7874798103252 	 0.013518004593776495 	 66.21196911149721
968.0 	 0.006083146796988625 	 68.5931060802756 	 0.013772565577710965 	 65.73548521877456
969.0 	 0.006136616460471601 	 68.39553625991341 	 0.014035581557290023 	 65.24129144596601
970.0 	 0.00619089660562931 	 68.19469536164524 	 0.014307413162869482 	 64.72845870835609
971.0 	 0.006246003679190163 	 67.99050620587704 	 0.014588435386879902 	 64.19599841081748
972.0 	 0.006301954489561 	 67.78288934827724 	 0.014879037415310584 	 63.642858345570325
973.0 	 0.006358766212122673 	 67.57176300458465 	 0.015179622248732134 	 63.06791835241571
974.0 	 0.006416456394242931 	 67.35704297289816 	 0.015490606061026025 	 62.46998574586125
975.0 	 0.006475042959958312 	 67.1386425533854 	 0.015812417233571647 	 61.847790519990724
976.0 	 0.006534544214271648 	 66.91647246535068 	 0.01614549499037468 	 61.19998035035721
977.0 	 0.0065949788470063535 	 66.69044076160347 	 0.01649028754525289 	 60.525115423077814
978.0 	 0.0066563659361524394 	 66.46045274007372 	 0.01684724965546524 	 59.821663135270455
979.0 	 0.00671872495063283 	 66.22641085262234 	 0.01721683945683437 	 59.087992728696705
980.0 	 0.006782075752411348 	 65.98821461100124 	 0.017599514433260865 	 58.32236994079766
981.0 	 0.00684643859785594 	 65.74576048992188 	 0.017995726348434854 	 57.52295178520489
982.0 	 0.006911834138262028 	 65.49894182719923 	 0.018405914939525675 	 56.68778160840173
983.0 	 0.006978283419431856 	 65.24764872094501 	 0.018830500141910997 	 55.814784611758974
984.0 	 0.007045807880195519 	 64.99176792379357 	 0.01926987258116023 	 54.90176408006937
985.0 	 0.007114429349748333 	 64.73118273415507 	 0.019724382034584053 	 53.94639862041144
986.0 	 0.007184170043667335 	 64.46577288450274 	 0.020194323531479076 	 52.9462407901196
987.0 	 0.007255052558456789 	 64.1954144267156 	 0.020679920731486022 	 51.89871758110004
988.0 	 0.007327099864458615 	 63.9199796145142 	 0.02118130619831355 	 50.801133330569655
989.0 	 0.007400335296948207 	 63.639336783046765 	 0.021698498177251512 	 49.65067574562911
990.0 	 0.007474782545219896 	 63.353350225703906 	 0.022231373497390027 	 48.44442585976647
991.0 	 0.007550465639448318 	 63.06188006826511 	 0.022779636263911645 	 47.17937288036755
992.0 	 0.0076274089350929376 	 62.76478214050733 	 0.02334278209595209 	 45.85243503167461
993.0 	 0.007705637094591872 	 62.46190784543879 	 0.02392005781832908 	 44.46048763753978
994.0 	 0.007785175066068964 	 62.15310402635562 	 0.024510416751028486 	 43.000399807571746
995.0 	 0.007866048058754226 	 61.83821283195827 	 0.025112470080970683 	 41.46908116694785
996.0 	 0.007948281514791301 	 61.51707157981175 	 0.025724435268583413 	 39.86354007420031
997.0 	 0.008031901077078473 	 61.18951261848164 	 0.026344083055703068 	 38.18095466354995
998.0 	 0.008116932552759635 	 60.855363188735886 	 0.02696868541014738 	 36.418757780924096
999.0 	 0.008203401871950284 	 60.51444528426375 	 0.027594967656374033 	 34.574736400904136
1000.0 	 0.008291335041249414 	 60.166575512435585 	 0.0282190690616583 	 32.64714535916503
1001.0 	 0.008380758091552773 	 59.8115649557027 	 0.0288365171913161 	 30.63483416278061
1002.0 	 0.00847169701964454 	 59.44921903432544 	 0.029442222278127487 	 28.537384222514035
1003.0 	 0.008564177723004844 	 59.079337371212134 	 0.03003049847235425 	 26.355252101895353
1004.0 	 0.008658225927227828 	 58.701713659759506 	 0.030595118895312152 	 24.089912377122676
1005.0 	 0.008753867105401268 	 58.316135535702436 	 0.031129410625486586 	 21.743991615654696
1006.0 	 0.008851126388752902 	 57.92238445410928 	 0.03162639383525837 	 19.32138307568823
1007.0 	 0.008950028467820533 	 57.52023557280468 	 0.03207896610033038 	 16.82733036348969
1008.0 	 0.009050597483354697 	 57.10945764365627 	 0.032480128450519695 	 14.268467879177225
1009.0 	 0.0091528569061125 	 56.68981291333529 	 0.03282324433505547 	 11.652806838970138
1010.0 	 0.009256829404651359 	 56.26105703534723 	 0.033102316989865856 	 8.989658269716516
1011.0 	 0.00936253670018078 	 55.82293899533658 	 0.03331226567016684 	 6.289488680017508
1012.0 	 0.009469999407481644 	 55.37520105189049 	 0.03344917794924612 	 3.563709839478365
1013.0 	 0.009579236860854972 	 54.91757869530874 	 0.03351051477590434 	 0.8244105988705075
